chroma_stft_mean,chroma_stft_var,rms_mean,rms_var,spectral_centroid_mean,spectral_centroid_var,spectral_bandwidth_mean,spectral_bandwidth_var,rolloff_mean,rolloff_var,zero_crossing_rate_mean,zero_crossing_rate_var,harmony_mean,harmony_var,tempo,mfcc1_mean,mfcc1_var,mfcc2_mean,mfcc2_var,mfcc3_mean,mfcc3_var,mfcc4_mean,mfcc4_var,mfcc5_mean,mfcc5_var,mfcc6_mean,mfcc6_var,mfcc7_mean,mfcc7_var,mfcc8_mean,mfcc8_var,mfcc9_mean,mfcc9_var,mfcc10_mean,mfcc10_var,mfcc11_mean,mfcc11_var,mfcc12_mean,mfcc12_var,mfcc13_mean,mfcc13_var,mfcc14_mean,mfcc14_var,mfcc15_mean,mfcc15_var,mfcc16_mean,mfcc16_var,mfcc17_mean,mfcc17_var,mfcc18_mean,mfcc18_var,mfcc19_mean,mfcc19_var,mfcc20_mean,mfcc20_var,label
2.7103398288835585,-2.349048075648977,-1.246986913441329,0.1979773922326828,0.4781794273640782,1.8760354883750323,-0.5638065031031719,0.6526962457819322,0.11271697338317986,1.0154680679371504,1.841711689633926,1.7614580103303463,0.22832190038115435,-0.6415797722263138,-1.3781461601369962,-1.454317628622627,2.5844113373409976,-1.104111049525012,2.074880424615424,-0.9188728390011947,2.0233967848176855,0.9266965951154602,1.8037854202567702,-0.5182518115859347,2.1107167235209423,0.9512466865956485,0.8012600611658719,-0.5517623197289983,0.4670465299570455,0.8454164191992729,0.8627645242737056,0.23125563688674428,-0.971745473855152,0.3670324984274325,-0.4446585181783545,1.4263692372075252,-0.8761682511759842,-0.5326404282652887,-1.1944207374062659,0.6845223358702264,-1.1990167677212202,-1.7938869269822815,-0.9769664497244172,0.3985638519730363,-0.8914956222765678,-2.965967656379086,0.43580898364758847,1.7534039960180428,-0.6375983376035317,-0.9425777811862581,-0.7588933616593345,3.0999965497286537,-0.3308517540808125,-0.5891318428369403,-0.9899662743606427,5
-1.269374274955669,-0.16621907979609077,0.4415419228598747,-0.1304663859344304,-1.5827028350129844,-0.8457932002182009,-1.571493620240215,0.22639505850480324,-1.4599438459420468,-0.6533182491313106,-1.5510632827086774,-1.669040617048921,0.22300447688374092,0.9538426162358753,-1.5305190633605577,-0.300076469742363,-0.21356389604095327,1.9615312206525533,-0.27365351385688863,-0.7582936684922071,-0.7101500988254538,1.0773126360920628,-0.13269328143523595,0.12315221423298375,1.1684720357016463,1.1684445121812206,-0.1900712561062622,-0.2809305377413244,1.0838424977377143,0.8345192047042389,-0.2789723684485242,0.6712383647264302,-0.6934239106242754,0.22618637660779206,-0.7689999111899901,2.03574953135692,-0.9596623746109626,-0.30949355648933524,-1.3981591472049237,0.6896885989866673,-1.3948350713469637,-2.3346349113558666,-0.8839952532214459,0.8704368301095546,-1.037650723823029,-1.2511589629100544,-0.5381944774697816,2.352877512566505,-1.0472252581562385,-1.5918703691621052,-1.2785676513515396,1.977546555257495,-0.7526488265845453,0.6335893191437183,-0.9232323608821812,5
0.028287524439514006,0.31629502140339666,0.19972420260612275,-0.409195834643705,-1.6068692956590485,-0.9249294596903794,-1.4908252337241954,0.16282956878340582,-1.435133474530834,-0.7441782888015684,-1.7185898962201136,-1.8707903528263095,0.21199136866261198,0.4982345430304216,-1.5305190633605577,-0.37818878129700395,-0.4497817777464138,1.8463989421951326,-0.375869769245792,-0.5691082322327365,-0.7139030119918731,0.9224291749785393,-0.3116005891120797,0.023845833006277652,0.13124401048171602,1.3315370185810231,-0.5214247361365878,0.17690994812978664,-0.039641796864961686,0.8463731339622201,-0.18894461060520143,0.429519521980972,-0.8339509527350935,-0.09581243845050533,-1.1931881973884868,1.6816267391234958,-1.0892592717461647,-0.9629719370074585,-0.6598087282412759,1.0498427099144958,-0.9767114201904823,-1.242144582272552,-0.5366254571561971,1.0387416116278978,-0.6713680148349244,-1.144876262974235,-0.6539216283528454,2.6971262267374128,-0.973325736542791,-0.9763851012828704,-0.9312144502097781,1.9290328811336463,-0.4989494484882856,0.355150037696626,-0.7688272146221145,5
0.4577128881573837,1.5028855165806552,0.2328526085505394,0.17840073685818225,-1.7133030856485243,-0.765668404750695,-1.5635440080099452,0.2503300246963859,-1.5640946178448623,-0.4464134712414653,-1.752167428669604,-1.9115936255937183,0.18952428395724752,0.634141794714737,-1.3781461601369962,-0.586071353416762,1.3692216924243907,1.7052714400436426,-0.3646483456065571,-0.0649929022880906,1.2680409091143021,1.2798848779885472,-0.9023336362079551,0.4811254842282069,0.9648081309939317,1.2075988883006452,-0.4944339444498049,0.20834518609070538,0.8504497071011795,1.0023911075576675,-0.21189944773884245,0.6189455216206599,-0.8233272628336429,-0.15334324553480747,-0.9257197643733164,1.9966426646491524,-1.2809614039469797,-0.5337390348803039,-1.3586051932323149,1.0949234502802612,-1.3028192309610074,-1.2332139421656707,-0.8652465013488204,1.1317572733779007,-1.0734540509323627,-1.241633702751726,-0.8496926679784599,2.225174724000663,-1.1917080450583941,-1.06621334830895,-1.0895436917808667,2.2916435453333306,-1.2356584535216406,0.5847714592631589,-1.0370890599231901,5
0.4057292681720339,-0.23068568479197724,-0.004781304239810729,-0.14753532899016755,-1.6268328490749415,-0.7877817599556379,-1.536216230734766,0.441066808624027,-1.4603661501362803,-0.4894141015602424,-1.627966663480091,-1.7612760620255297,0.25635935199223686,0.23643438779525003,-1.3781461601369962,-0.4404577264880704,-0.21355483438676562,1.9295797625063749,-0.015279859274353038,-0.3207901608965523,-0.4375145680601685,0.8865057477865332,0.40246877772457523,0.14999073297289162,0.3367536971113935,1.1896355741172477,-0.3622231552166281,0.27233121484665285,-0.3062196361546838,0.9773159928065478,-0.586567595375644,0.5720997692704245,-0.6820458787364437,-0.14584680466930175,-1.187132189881717,2.0858426700068358,-1.1717653763483782,-0.44829947774501494,-1.1731256269367791,1.1146530423672099,-1.2070669311330051,-1.720190449017884,-0.25694274037006565,0.8003879907045922,-0.5874663169175318,-1.2969659583857138,-0.6230281954790281,1.9434200730193878,-0.951567692828451,-1.462079921649804,-0.8378818158192183,1.220488239358389,-0.8350132905957391,0.1785210752501987,-1.0029941197142562,5
1.950440698389953,-1.106358032600246,0.20853254065037774,-0.04080140833346216,-1.4188928792142323,-0.694150749686208,-1.3186182433475304,0.1675414130017191,-1.2670564052259359,-0.32985339035431155,-1.5566595381169257,-1.6757309352439154,0.21282084044092045,0.25746074566815813,3.0406680333462828,-0.21305471614148663,0.39606091290983564,1.5385489778278771,0.21343594458293322,-0.6790329191232085,1.0811955090310559,0.8540641011485143,1.9120336404128642,0.08164000527123531,0.21662400649303057,1.3518299792919029,-0.008467145293479484,0.3956991304330955,-0.08013459182879187,0.9102391311130624,-0.086205471222339,0.4973910872722705,-0.5673307246181831,-0.24622132547384992,-0.9623604703936874,2.0059528440770817,-0.7340107660731036,-0.04072761246128176,-1.2889266015072454,1.494300633489303,-1.350213038870892,-0.7989075452450953,-0.758748860690378,1.0808269341406034,-0.8356854789924579,-1.814740292979496,-0.6291986352192797,1.8222447840007145,-1.2173250591216003,-1.1093881561981325,-0.6368484525347736,2.4570192692794683,-0.5574362853127677,0.5135637998272602,-0.30333977550517366,5
-0.6875100238100512,0.26072816782041136,0.5315701103065563,-0.18146187806583178,-1.5998601473153704,-0.884440246090356,-1.6497976433187143,0.02889121405210702,-1.5153976654473218,-0.7751488190061022,-1.503404849554562,-1.612202706340078,0.1731435183412396,1.035207675944388,-1.3781461601369962,-0.19041410319170105,-0.15197385600362784,2.034514570239787,-0.28840348950159367,-0.7302144468667662,-0.44539668603244625,0.6872306725945185,-0.2948115245198805,0.09693638179898396,0.012897342774500276,1.3322687510277909,-0.6512002617785051,-0.3033076287398336,-0.7964152187262417,0.9153481119117663,-0.3630935891131724,0.47103568949895636,-0.6594834490507903,-0.2872720019445577,-0.7766597804905442,2.258688722479891,-0.9169382559191804,-0.3181526538413933,-1.5809474143837503,0.5652142417661573,-1.2402761939479099,-2.031008371809529,-0.8612428281475574,1.806842233339467,-0.8603664156346535,-1.0216696800161456,-0.8355196355922921,2.14690743436675,-1.0973016293826565,-1.0292548772438823,-0.9640536847705532,1.6073864798854636,-0.5355613309515989,0.6255635874721648,-0.8747087925227003,5
-0.24888736709541984,0.7239882121694747,0.3365513783779077,-0.13488593884466246,-1.7776240581046052,-0.8063839760299234,-1.7527205236812406,-0.026353070707323453,-1.706939011544314,-0.6390791207274348,-1.7693172436303652,-1.9324812071935304,0.21173974043056623,0.6381559437438378,-1.5305190633605577,-0.46231491302127886,1.052111303557969,1.8858877248249768,-0.8739462346007794,-0.023931061682004,1.1050144718390573,0.5379974030937675,-0.4676777591314966,0.5139762591695272,0.9976065357767763,0.9044823897558726,-0.6330470968466172,0.2270901737370301,0.1796210626479594,0.2442096977405107,-0.2582953019288801,0.37446120001108557,-0.5075093856607896,-0.4213891576310804,-1.2023957985172615,1.9261319197426912,-1.2658005029765078,-0.9124752648615493,-0.6102335079602267,0.9812626853152134,-0.6435018379847574,-0.6219666809565358,-0.0604309426914648,1.4304063966284104,-0.7191989601400182,-0.8020348634211337,-1.1166671592054036,1.978183246982446,-1.1847479657300675,-0.7816249802856439,-0.978473103408913,1.7151119816676454,-0.37890902162108675,0.7439729228275062,-0.9750272772716431,5
0.4305610098841501,0.8344052384120556,0.4983017526568039,0.13927421982497387,-1.7428282233329493,-0.9850559042380892,-1.7242913389804553,-0.37264456247995886,-1.6190205571073455,-0.9417854118017966,-1.6965659233231358,-1.8440933552678163,0.2137796414869165,0.6234177318586834,-0.6416771278897831,-0.2152488574269593,-0.47008604153252365,1.9224022857385454,-0.6605314559598395,-0.383436746093767,-0.3871019172725778,0.5125200047120463,-0.55917856186519,0.6945454074971191,-0.14932075373738873,0.6801091045524035,-0.17783440493275046,0.6630221795036492,-0.7286799782811115,0.2274231637381607,-0.9297708035799158,0.8211089149402868,-1.1699838810593175,-0.34228146679452787,-1.3484526213536299,2.172715340360112,-1.346533439376143,-0.39158860436131304,-1.3495166329430202,1.4051949641991455,-1.4505493867697647,-0.5198652905867291,-0.6856727925089572,1.1908624881431242,-0.973994391708189,-0.42101012169957647,-1.0214161641081316,2.1002868416265885,-1.1558628669125406,-0.35874921227860507,-1.2136099395425346,1.803701020479643,-1.02701741691393,0.8464432225957453,-1.1174017741960565,5
-0.18950516243878265,0.7321857318711512,0.06759096620260224,-0.041890143411786276,-1.6486490170929198,-0.9362229417647308,-1.5674259466132043,-0.19533323633625715,-1.5137876307068072,-0.7888712040050979,-1.6483659170649965,-1.7858499633700475,0.1967121080112107,0.14156652184733362,-1.3781461601369962,-0.33665425840735447,-0.2616651799452134,2.041041496874522,-0.4274082285012985,-0.6501750096001678,-0.56738434846796,0.928025539972656,-0.7167165359255853,0.22434644686373026,0.20875821047078877,1.41856530035959,-0.6934268071734059,0.30202182233151226,-0.3956023145086911,0.4511759227274511,-0.29074860253618107,0.20554148160899935,-0.2967614819011192,-0.35396390409082257,-0.9536881828253785,1.8135088695043042,-1.1060985884165335,-0.5044503206978708,-1.3936952152613111,1.4605141262011019,-1.518845468301258,-0.9291912908892197,-1.148055764846944,0.936469001842336,-0.6967406215635089,-1.7353502088214807,-0.93408896484757,1.1673802941921008,-0.8790635505394319,-1.9231054025670018,-0.8819713007796587,1.6963963417821262,-0.8959522771690234,-0.15485929134541274,-1.032879665850591,5
1.2933388806492596,-0.5136956605044488,-0.011713790415140106,0.22204090530589,-0.6276121784558977,-0.47916258421208185,-0.5956990414346638,-0.1966048281495101,-0.41695806223407716,-0.36446316719163624,-0.7596444533615466,-0.7571230119667793,0.21268904265115465,0.030098542053917404,0.7149763525656101,0.12322221724782804,-0.772613457528414,0.6810856777189647,-0.06176247867139531,-0.7567870613881849,-0.4012445661125596,1.6493402521677436,-1.0013820359692738,-0.4997078352089803,-0.3193456770560429,1.544244338040859,-0.5527838411135286,-0.3212146380328077,-1.038590748437288,1.243462263224784,-0.6505905883035384,-0.0006409778928979211,-0.4887802152659923,0.2573401434942445,-0.5466425078318522,1.450225172974429,-1.1652585372894544,-0.608652566719473,-1.4129506455520753,1.0169728188930183,-1.4544101952872885,-1.299055742416681,-1.0412651022114177,1.3921879060884446,-1.1791949166132536,-2.3215896293618075,-1.0644795523444184,2.258606624020317,-1.230909898041918,-1.645181793969083,-0.9488647370199771,3.042512853089599,-0.8657119380414521,-0.11328197166711101,-0.9420610384110122,5
-0.6946296370723531,-0.1486642502962845,0.49500052555881796,0.18462258380416582,-1.4766412549272518,-0.9283358575599441,-1.5246277471134293,-0.3448354923018061,-1.3646086740938541,-0.8586836288513927,-1.4783119624014478,-1.5823757307557407,0.19089086988328205,0.9085323115121672,-1.038237376022898,-0.06330518154026188,-0.44752560180813755,1.9906141227852119,-0.6512465243453509,-1.2027159280422004,-1.1971051081323867,1.1328138352116721,-0.5454573302760384,0.02347848758293887,0.5526160434648407,1.2690279803563556,-0.248061632281004,-0.2506109485946267,-0.3439193736266525,0.49008748827753007,0.3339218946568722,0.5292268403455789,-0.6578006489950947,-0.008876685572495463,-1.0093190074728016,1.8993268907679388,-0.8617669719597066,-0.21338755352700667,-0.953525832916399,1.0833506142531582,-1.343109655503232,-1.5008065886923783,-0.8788670361467062,1.5143368259148926,-0.8150535817378194,-1.425492285500749,-0.8015305895774574,2.4668530590283084,-1.2125122346706654,-1.465849824375686,-1.0534165499014245,1.2605987255626594,-0.5097488067605347,-0.21649497223766814,-0.8747730896428293,5
-0.36705147667522287,0.8545137253418436,0.5479163333941168,-0.17373650624512516,-1.6964130336533128,-0.8419304624788733,-1.675484406404758,-0.044835554151510075,-1.5874797126005376,-0.709822909651116,-1.7027037518354085,-1.8515282118702736,0.23473876422177553,0.9460336758256573,-1.2144863751931712,-0.26224288790816397,0.39378265468805346,1.951275804220582,-0.6115830478376322,-0.4209832287820236,0.2981636812154205,0.6088254455638178,-0.5637297961117564,0.2997164299239182,0.491929747515951,1.0895960286729773,-0.7875564058590603,0.2211463894135144,0.23556198423675945,0.40876354316246,-0.4311273338263405,0.5843108811364194,-0.6870842300285995,-0.3516718130172572,-0.9894764409798504,1.524107199493629,-0.6645952728146336,-0.8135394059142229,-1.032117897806121,0.7199898056025278,-1.3734537659396828,-1.6201887457843744,-0.6217899009701531,0.9961569576627686,-1.0128489362957849,-0.6633665549780915,-0.39599589156629966,2.4232351727030275,-0.7861556982620377,-0.6599158691720421,-0.8790373357933028,2.1979200330144413,-0.7489358411803223,0.9264948931863909,-1.023830057140976,5
0.9364982991203407,0.4093431313426958,0.23827896940426466,0.16186568102454468,-1.5320761799305822,-0.5523853596872047,-1.3824538355827154,0.19749042689711238,-1.3543941913958335,-0.2093344956618985,-1.6882618023947673,-1.8340409383637664,0.18443053822453517,0.35890774223890876,-1.038237376022898,-0.3875035435114122,0.6179079788231489,1.444879497436645,-0.24077290228712536,-0.14305843172477375,0.3717061362541665,1.1875367243304626,-0.0384603192594897,0.3090855142488905,0.7812613694971257,1.075995542250513,-0.760855237189448,0.3406716692744857,0.5639883010258233,0.7707981367143233,-0.6793986558619813,0.844240104441208,-0.2928696685890324,-0.08096061587187327,-1.2468143507102505,2.0965506074840596,-1.0650836186716883,-0.2817723964851455,-1.4013159803469943,0.9535710983146213,-0.8610586051956821,-1.163450607241377,-0.5757571901276516,1.3711726522433973,-1.0275887478055556,-0.9049327971687667,-0.6530609073645448,2.3139958409132224,-1.1504093320711473,-0.6202927259286937,-0.9137931522701621,2.681959179240976,-1.1119580296195133,0.7767268861046869,-1.0899148819099977,5
0.12665926981427994,0.03496500742532269,0.2045404012437162,-0.16206668922101833,-1.3423143135222104,-0.5929351718378117,-1.2788415870855392,0.22282626106335585,-1.1982472155780295,-0.32154009693601115,-1.4059216908302345,-1.4967109967549264,0.1927755812217608,0.5187801367287765,-1.6727337730358816,-0.1698499579301767,-0.039066260666000004,1.6279475186851449,-0.017094173830699135,-0.7113845416801459,-0.37955948338205614,1.1522812053086708,0.19284412042914867,-0.25462668665088356,-0.012239460158973968,1.760982231335039,-0.04087961743333225,-0.11618706003712757,0.10308739032473022,0.7992155549074926,0.4687935638139584,0.14347110886901512,-1.031556377442425,0.1538257949469546,-0.6398286451051879,1.7702571346425542,-0.5858550921660514,-0.504079169334416,-1.1082294935147206,0.7394924590139221,-0.8648890172725335,-2.067443990441587,-0.679609210272875,1.2419050031362073,-1.0150334272123431,-1.3739280105435252,-0.46335987685067426,2.430089408986779,-0.8359322655963461,-1.682209357338274,-0.928872571542296,1.8955858928496863,0.016299698920226324,-0.3679838668735502,-1.009444884393141,5
1.694615883142166,-2.0888601489109027,0.6130376538130782,0.1484565800666582,-1.4238310567448083,-0.9146568645666528,-1.2628484541318825,-0.30448094376283485,-1.2303423343397686,-0.7474762240606437,-1.5636999884692382,-1.6841526141735441,0.2706145355743419,0.5373398402335416,-1.3781461601369962,0.09115813843763139,-0.42217285293557627,1.679445184086238,-0.3237927005590559,-0.6671264732132455,0.42599088760528386,1.0066696655704122,0.3958386008442791,-0.2796494246918851,-0.5253895732367222,1.279510503074714,-0.7196532973183406,0.12949932460303878,-0.63343499160024,0.8770733231656079,-0.763338745200643,0.38230155233845126,-0.9342661657015193,-0.2580916814365172,-0.6704364192712986,1.6816872466158708,-1.298213016636675,-0.5272922379954884,-1.4210513938845655,1.4512209445547195,-1.2843949580823948,-0.6494226569496422,-1.2074771640516053,1.2288126578006342,-0.9259547858391105,-1.8633632222644008,-0.9361273451011992,1.8648805726768203,-1.0115735073931438,-1.37616604307641,-1.2235962845671062,2.1714044950495546,-1.1109278371374167,-0.19422976949182483,-0.8264820709724242,5
-0.46405429035851425,0.15790564749181604,0.6707603604157618,-0.22672998909724262,-1.2794911547329975,-0.8408486265292833,-1.2753334882866385,-0.02267626797292666,-1.1681052537146195,-0.6612890464968502,-1.3705389147006637,-1.4550468476413472,0.1908281758524851,1.1869942149757087,-1.2144863751931712,0.0701270996140445,-0.1979894638318998,1.703721027151596,0.10442890148508589,-1.3521492151482137,-0.36391422199997026,1.2237705135151438,-0.20723921917204322,-0.5885869647534228,0.1748277180242436,1.545794533944829,-0.015273286196988804,-0.5075053147065074,0.03871590232859638,0.9784626650357663,0.7227577308578624,0.02994368270309065,-0.6053145056180942,0.08826548998732456,-0.45509889966191097,1.8913562702752507,-1.115757837733704,-0.016933432085583934,-1.4756207213884247,1.0546254421998131,-1.4666056157267529,-1.795122551994832,-0.5250046532790772,1.4646085446455308,-1.3399185445073047,-1.4710157501696923,-0.7251681781372743,2.6434279458567422,-1.1473319953341303,-2.2491964461923524,-1.0160681155503555,2.314555094954963,-0.8241564255661162,-0.30510159622332367,-0.878193240784815,5
-0.37843781888254463,-0.2933162765620828,0.652832025262209,0.09774075535631828,-1.478293993588898,-0.895307613635008,-1.5083126309100179,0.018054688777558135,-1.362048454916314,-0.7905317744491785,-1.5192909939392667,-1.631121291710868,0.21360280377330387,1.1833140587502797,-1.5305190633605577,-0.0053057810914300015,-0.5633795544151307,2.0583735937587906,-0.05596606821948809,-1.1433966278383956,-0.7338540245117827,0.9246697366112675,-0.7922803988093932,-0.18875210071876256,-0.42687596568179476,1.5313897705501407,-0.14307195080600144,-0.15742899384546363,-0.2107582195576669,0.4986894441553979,0.11101556345920262,0.33173483668515974,-0.6736531356933965,0.20525627430124724,-1.202792969995813,1.7889503123418375,-1.4662715213050095,-0.6596987464144766,-0.8247625612351502,1.1238833329974425,-1.551490382048149,-1.389954773353051,-0.8130754012223806,0.9996785223540053,-1.0998160926201388,-0.8435368154575645,0.09480068202670722,2.8118148058721166,-0.9618830788078327,-1.5992749458261193,-1.3547411570327972,2.3989747715782954,-0.8282230775281882,0.5433837934287234,-0.8658251159479067,5
0.3570721266367595,0.10560335257733616,0.5955795291703213,0.35528682314070836,-1.3083659461325035,-0.829986106236836,-1.3483619442949042,0.155077420997176,-1.2159839917358328,-0.5653027597955822,-1.3808288036771206,-1.46714945350578,0.21757431501446242,0.8760865654106975,-1.038237376022898,0.09654467015494686,-0.09715375141673327,1.6511004810567025,0.1449248249305168,-0.8758999135209993,0.8036463714026991,0.6504041034563003,0.9960626043862663,-0.2559883745791774,-0.8280298195102701,1.0469558075003558,-0.3837836825502942,-0.23404487743121333,-0.5394445137928316,0.7186974706174242,-0.005440250277071856,0.05796521654697168,-1.3726097816562841,-0.3207601536197694,-0.6935380578758708,1.8390946550199834,-0.5526082259083183,-0.2051222694744628,-0.6539642229125756,1.0011806605411946,-1.0868623067165324,-1.0529391454112054,-0.9246520525418618,1.333624914945906,-0.9596510746717681,-1.150437716623093,-0.9082309587504322,2.354091555549865,-0.8703492279390005,-2.1519068461168738,-0.98897890416559,1.7733545062897338,-0.7834348637633388,-0.23412679621073487,-1.0332252417764292,5
0.5555150060478338,-0.3043824465189405,0.3682426141359262,-0.30448269218609925,-1.3287918336104656,-0.8535070102617481,-1.354542564482166,-0.008621326558307264,-1.2062973892806037,-0.7561999626433402,-1.3396692477712935,-1.4188079660717927,0.24109127736339528,0.4407489295536135,0.3893795172563153,0.07418623058555468,-0.3854583733017456,1.9034423527053719,-0.32386233754616456,-1.4177152640500952,-0.5266746159781004,0.8293350072908293,-0.5869038842125037,-0.23034652424834728,0.6397632968386917,1.8271402591901513,-0.3609651122032446,-0.0005090469419791146,0.15952812770779445,0.5939697940164583,1.223685855518256,-0.1847775405574569,-0.8983479116188454,0.11541853575216099,-0.639435423513102,1.7488753957069267,-1.4615451083001636,-0.4236291897628846,-1.4071902616016696,1.2309121301439183,-1.5769172349466614,-0.9440394387086785,-0.8264896902186956,1.1020811551511294,-0.3876104744703775,-1.8017198541953914,-0.8538114534506283,1.9765818594853077,-1.0779718888796312,-2.447671664077074,-1.1429718389245134,2.4072789460374158,-0.730369579180911,-0.25486059428893776,-1.1338969387889684,5
0.7112299818020447,-0.27509389346024815,0.8043963197493467,0.6491623491489014,-1.0639591720721864,-0.7396207347673209,-1.0717165514007447,0.5868845789731952,-0.8326109654083134,-0.3458104878730612,-1.3757741213728962,-1.4612028780577733,0.20336485417124053,1.093673044280412,-1.2144863751931712,0.3007383878484253,-0.6813173355763844,1.5572878406810917,1.6203213078700882,-1.3527596712649985,-0.03378481921645078,1.2847915751155463,0.029176261042378086,-0.3936829526867353,-1.0004877914366366,1.5212738395004206,-0.8029494567485591,-0.07841221577528934,-1.1736484432065133,0.9747244041880152,-0.38023640854795515,0.24366754563929235,-1.161684573228366,-0.07421122379675849,0.7063963988542165,2.011192233309901,-0.9578074679842541,-0.3860494304477711,-1.5170552386072373,1.1049938790730673,-1.5579769134048154,-1.1438317061103314,-1.274476295553586,1.3560336746877943,-1.1156539754226567,-1.5899243206692486,-0.9684675325801709,2.283523236201599,-1.063796278380319,-1.8788886679525347,-1.1290476843178532,2.8043917682657966,-0.15865536823215923,0.445509463861419,-1.0801854281913537,5
-0.07893535569154479,-0.2992279308992377,0.9579936565945473,0.34996448866773755,-1.3068657966468857,-1.0803158989511903,-1.681989396568424,-0.8031246432928473,-1.3271027828434994,-1.1186836896325965,-1.0125590929407733,-1.0411562288360383,0.19110724609630458,1.432290744951793,0.7149763525656101,0.33370333862280355,-0.8981952278716945,2.204127987650302,-0.5562949634668825,-2.378655723987834,-0.8047022058719884,0.6867460039771752,-0.6858775292747202,-0.3675382712281345,-0.7163048338113712,1.5116473421824448,-0.6006637207835471,0.19240144996644964,-1.1666684803308058,0.37141201697669535,-0.5360813548779678,0.8441894761375467,-1.1009343897064687,-0.43382387035586534,-0.763634094370889,2.109881842046892,-0.8620787091951522,-0.9096511010007733,-1.4030946385577396,1.8897077005082998,-1.275416724556823,-0.47093784419249923,-0.44376918644378416,1.3266701649781831,-1.0768319654468717,-0.5380073200970417,-0.9602636832810644,2.630704506955303,-0.42242340056118866,-2.0439601583977076,-0.8761947000245336,1.8548802461977254,-1.069828373786183,0.6687108860080992,-1.029921660806961,5
0.16634112701334644,0.4288900255596662,0.6712870506261179,-0.13144256176650565,-1.5708864431655711,-1.0273651973536029,-1.7531905102147827,-0.6593015171899064,-1.4975289192288206,-1.0136753752741803,-1.5091816293308182,-1.6190790234326227,0.24509719834206842,0.6707279963627324,0.7149763525656101,0.10101611481591116,-0.8728284026431136,2.2066727294134414,-0.8365180219816594,-1.3803880457958293,-0.7835227650319811,0.5617065397902852,-0.5071582250678505,-0.08079372672912162,-0.821502958181338,1.0789772834568179,-0.6727297978886249,0.35930419222584853,-1.181965956041335,-0.223163101564684,-0.2939719400722768,0.9350519859092988,-0.7986162097649795,-0.646168539007769,-0.5499573980758945,2.0761616111285335,-0.959922055532204,-0.95595858284109,-1.2178927079098998,1.127467850335857,-1.3335451966834049,-1.0106956324975311,-0.38980138726572294,0.9011031466476418,-1.1290081389411648,-0.9009563869753827,-0.8193545972753324,2.1331931946232165,-0.8269440776417228,-0.8727850091845205,-0.9146646083402802,0.929545410462202,-1.1775012536456764,0.8480441291883034,-1.1154397838584686,5
1.7853151844781852,-0.3957274759843778,0.3250748848881663,0.6899668707084783,-1.6801657967928638,-0.9573381910071708,-1.6908638159097515,-0.4779706261258643,-1.5034675719602282,-0.9170730797455687,-1.7424191127971713,-1.899734910883157,0.16994335841490865,0.4396593359887383,-1.038237376022898,-0.20880934465759396,-0.6249265296007585,1.8757491736863758,-0.4035673596333298,-0.7094350063414889,-0.8164631286988802,0.3993487373151599,0.15903082268342722,0.7854165399094023,0.04291994985916271,0.7889141244025133,-0.6874738167511925,1.1549921490315942,-1.047887688376019,0.023804073165300775,-0.42970805313335175,1.4316299656746505,-1.2853723097979322,-0.07450974293141491,-1.3037259780163262,2.0967184895438287,-1.210375644701882,-0.5670800708650057,-1.6472517619080342,1.4591516292513493,-1.3442063452661275,-0.29120513794906044,-0.9706903046471674,1.3935773969647816,-1.3205558911310828,-0.5336167851406886,-1.1083675675467244,1.6666829176137952,-1.150947143426569,-0.2905594956547805,-1.1602760068651468,0.8529104845735807,-1.3427376788018879,0.14131910534010167,-1.1720680379619925,5
0.7932559743977078,0.33770201086642315,0.5373466906627751,0.07298695155255634,-1.4845129252762652,-0.9722567818499175,-1.7612553718795492,-0.807788673006543,-1.489953837744759,-1.0545831025535946,-1.2602385258477675,-1.3260370663479168,0.24690771299067132,0.5037840357137405,1.0767506140203809,0.1180868441643541,0.010193067452552596,2.3651191811036965,-1.0308703703815136,-1.795080793301469,1.5990971003276506,0.41367761225077787,-0.3504291520309558,-0.36795132502366856,-0.6013891436205638,1.1631785856833863,-0.6925209270203927,0.028713249586709698,-0.7599196423828927,0.39321601676040946,-0.10326344639964889,0.832589494749261,-0.7363120257093344,-0.861694120082071,-0.6423753863760568,1.9738201478864148,-0.7698934837789038,-0.7852804067715901,-1.2737772655585438,1.8133135541252332,-1.2948599690261575,-0.4054749928915588,-1.1833224670124955,1.5495616290325551,-0.8004508321307469,-0.3271538989231013,-1.1074085623662961,2.5246595615400937,-1.0381432354029059,-1.3085708620347924,-0.5442989967020717,1.8161746841491864,-1.0984488707872997,0.8859702354889756,-0.9478645707277574,5
-0.623249105808578,0.2876836547548428,1.5676180680369554,0.053246713492163346,-1.3866769832625288,-1.0988710861274233,-1.8167847240099544,-1.1830792579833838,-1.4142822049405595,-1.2319463741925356,-1.0519134051665202,-1.0859767383087509,0.1857835141835987,2.18506479827142,0.7149763525656101,0.5375690449648819,-1.1636173254111457,2.250662773592934,-1.1130111233126818,-2.2879298731715116,-1.1805960573732286,0.3869940395122842,-1.1408791655199915,-0.027894726934004688,-1.3301611784354457,0.7267139646462324,-1.3300629020821826,0.15207339078416843,-1.2402313741615443,0.46441761706411694,0.025567907023668554,1.0027066476504174,-0.8351642577591729,-1.405447692589086,-0.5486713981982082,1.4597567118932497,-1.100218927835473,-0.5052771794416916,-1.0714732481074427,1.5540194221459311,-1.3915235863841668,-1.4742956479391187,-0.7522105030572351,0.7933988257835848,-1.0539735862369017,-0.3268614947583406,-0.6453474058078872,3.0539579752878456,-0.6435022908802851,-0.5102632008222542,1.7435639316471987,3.194083344275778,1.627520330156695,2.1238460808325086,-0.1832343583130348,5
1.1242778250541863,-1.9052087357306422,0.6463722446848047,0.06607910856252068,-1.5088633961279858,-1.0031630138593453,-1.705459424193347,-0.8089118678687713,-1.4295115499451017,-1.0024915753976773,-1.3909381682855695,-1.4790509217059826,0.2486540509282578,0.7698165784543232,1.4810865532933601,0.1664668081238271,-0.6093811738646081,2.3023858916224875,-0.8404159558099664,-1.7999845033476858,-0.15698255298456124,0.8771110559108449,-0.8737797059744601,-0.17165270016793005,-0.7239189116271889,1.4760569979936529,-0.7726049241654864,0.6952658339437575,-0.425857255185352,0.3815391927600888,-0.31338359914658565,0.6198960379782846,-1.141413866769687,-0.5831049750376246,-0.15616650261702647,1.969199473994703,-1.4069895404185986,-1.1512688981163446,-1.4293781818594278,1.6425983453530688,-1.466678901084662,-1.021427472472546,-0.7759551466488369,0.8361356928635929,-0.9357569915563979,-1.268362053987946,-0.7588165056193995,2.460097179310319,-0.8155574585502223,-0.8263618161484415,-0.9802722778982578,1.0949066539279135,-1.1761482017971812,0.995537346970734,-0.7150854540014469,5
-0.7275380392495866,0.08358660636094174,1.029134941777872,0.35392239482883275,-1.4623169152515145,-1.0357238993284559,-1.7270606517603488,-0.837880481604997,-1.452447946494404,-1.0999584657158439,-1.169254244371729,-1.2206134534826194,0.1829056599750095,1.843621189124739,-0.6416771278897831,0.12675014466810197,-0.6281117010477199,2.0166458668834593,-0.5139899378144399,-1.5877080233487306,-0.6569094077895334,0.5757479576773371,-1.0012693127147403,-0.4273241584879653,-0.6894233606955816,1.4517216951142993,-0.9757071896875676,0.25210278260108987,-1.388685949966799,0.3031701618204404,-0.5042550831033061,0.6349090325042365,-0.6873404763393313,-0.8548610116829184,-0.6815544141724623,1.974572119612464,-0.849906241093184,-1.20052521998604,-1.1772435965499086,1.656276735492461,-1.3883844630565465,-0.33955564048398357,-0.7406532020518509,1.226810190806147,-0.7437378252247556,-0.07150538361927493,-0.8306898148267305,2.5888553610898004,-0.8741249669354272,-1.7436151734178138,-0.05080839419596109,1.7756952632484444,-0.4605406852383171,0.5254587310121535,-1.0545699027428581,5
-0.40952231767249747,-0.9510530838455123,1.084384109731144,0.1601760103348406,-1.6953817061033256,-1.0257851663358586,-1.8101195600440094,-0.7695976178593742,-1.6279417332105264,-1.032095617165399,-1.5286782610756835,-1.6423133278119952,0.23053976088731826,1.4247579201815663,-1.2144863751931712,0.12029816518688735,-0.835372978819298,2.1855605272273637,-1.045776577510271,-0.8809129918222123,-0.5105041851275101,0.27087032481976636,-0.6988249380559429,0.14101012101955074,-1.0100019968395804,1.1733053178068964,-1.1994396327012067,0.2857998878557762,-1.167643199593639,-0.20067159977072502,-0.6463088372616659,1.1967632446816436,-1.0228223591469252,-0.40605780602591834,-0.515052043490859,2.5184403222095937,-1.1266702427070425,-0.4659876871637553,-1.2975294456602529,1.7220391691245147,-1.285958302292431,-0.4564031579586497,-0.9715065880708484,1.2643033336175182,-0.7822423694382331,-0.2568987436013099,-0.9271227055769229,2.2532580401115925,-0.9235048171590318,-0.6764450637111015,-0.9149038620378702,0.9833663076839909,-0.9673539507573244,0.4807406143735178,-0.6142107822875027,5
-0.1951999766986483,-0.17914919812224855,0.8909776577401403,-0.2610426112595566,-1.5203035583012676,-1.0051215220662177,-1.7794319829995493,-0.803465558909646,-1.4749356448373332,-1.035798365508163,-1.2309935782304695,-1.2920529433518335,0.17267739912623173,1.0772397669550804,-1.038237376022898,0.2250354203917284,-0.9722441186561842,2.2432160197116304,-0.876133058389563,-1.653130652897721,-1.0423557567083162,0.5982014453378073,-0.9733837078842901,-0.29474743478861487,-1.0101616230192638,1.1576442444413642,-1.1415693196479018,0.07384592915111207,-1.0862178188454368,0.1129861867663132,-0.5098281972350698,1.170437684196693,-1.26326014700821,-0.7193727421112334,-0.4467496712287337,2.0103896871133466,-0.6551621681393616,-0.4217646949577255,-1.3151347397626039,1.7221337182489782,-1.3556165243215554,-0.867853774840937,-0.9120698395682197,1.4543198587496315,-1.2430379568723444,-0.5522668780863981,-0.6385557421911866,1.9263462959512851,-1.0026224885082402,-1.2024236532025214,-0.6505411769065897,1.536004189494229,-1.06907816732905,0.34555697700603494,-0.5237535941052377,5
0.9120850145217025,-1.350435087774215,1.4545590922575815,0.3701437462483803,-1.3938959694321589,-0.9761610241461949,-1.6316373595140945,-0.8592899797750958,-1.2967496688829727,-1.077308181636139,-1.2593359040077277,-1.324986785677353,0.283765446594142,1.3214463836029544,-1.2144863751931712,0.4907109320494486,-0.7093382577324724,2.0747741768671535,-0.8146359539935886,-1.7989205605162988,-0.48617250367730913,1.113428006715701,0.1404527690970737,0.17963633029408932,-0.8107021172607645,0.837562483173414,-1.016860190180485,0.20818662694747767,-1.0298849694870371,0.4653979397847246,-0.5340763511092673,1.251163187875482,-1.1370606748249668,-0.44710631974982645,-1.1747898341206062,1.699036738279277,-0.9021407480651722,-0.6206034878855318,-1.7904938847136973,1.4042475402250638,-1.5001088259395237,-0.7330473095754664,-1.2151262124012143,1.4625044290831646,-1.3382084510100243,-1.5986983596012592,-0.8280510537236035,2.2059746415588717,-1.295132178716538,-0.8480493485123776,-0.9788880243622011,0.8009286877545109,-1.0155165275470395,0.8200914247807152,-0.4761176972729985,5
0.6517258184404321,-0.10132477812011684,0.9384723217220748,0.11596945606716985,-1.3524436407134697,-0.96495161214338,-1.6213631468084784,-0.6535584348737867,-1.2811772017206156,-1.0127441738474003,-1.26366848883992,-1.330028939165341,0.23480351260759963,0.9609239351767246,-1.038237376022898,0.4486911956126409,-0.8738387330964247,2.0868400314689204,-0.5322248902241788,-1.8004730090208465,-1.2373702556684378,0.43954691422620173,0.5722123942548915,0.2595250309290789,0.04925679084979159,0.8702397616399996,-0.3508332116880144,0.021998049116761238,-1.1630683550277718,-0.09842152452532742,-0.34839692637355535,1.0218634828008917,-0.8154826665933036,-0.49035359601526357,-0.7484429349686735,1.9103287617514748,-1.242484179519586,-0.6087406392437036,-1.2788126729851617,1.406613239720689,-1.4894738136902579,-1.0915053275322921,-0.9346817382173946,0.9536413547057566,-1.2785632762866361,-0.8905185576041077,-0.6548772444232004,1.6891676165206282,-0.9499841878443989,-1.2972455126403488,-0.9151180362662324,1.0419250212174898,-1.0604542075357417,0.12732875017692677,-0.9358974590974286,5
-0.5610311786883528,-0.8758266321906687,0.8260017328529784,0.07544376863127326,-1.557842142473905,-1.0178558482441684,-1.7959611590855065,-0.674133076396454,-1.5098813169101482,-1.0514309022380586,-1.4559269407684543,-1.5558251559426644,0.2260330457527753,1.2719833124443134,-1.038237376022898,0.17536074279678662,-0.8878095604345508,2.388444032844253,-0.7607185785018251,-1.6744890500745466,-1.215017430866506,0.5224740353228727,-0.11851537614823009,0.21774629063305007,-0.6703080877805218,1.165176784334562,-0.7528819088379878,-0.03947836368412534,-0.9059486992336431,-0.11962848908635622,-0.14363535830911428,0.9901532709823861,-0.841512924368008,-0.28812856982983265,-1.1096007000040176,1.5226159870977298,-1.1364815565266668,-1.2514056354332301,-1.3089319873402478,1.3282280341176724,-1.320992215082925,-2.0821112570698506,-1.0156708959210428,1.3864431951660003,-1.0537743258116237,-0.40402884504229525,-0.6518279491198523,2.647482585179644,0.43819174806912825,-0.35513550619212536,-0.9964165758726523,0.5816293456785612,-0.998877409408799,1.003123376392786,-0.8740903335437156,5
2.251127329485848,-2.370990649242924,0.46842104285014746,0.5977599514963224,-1.4422891157416882,-0.6153030618323176,-1.5829270830532964,-0.44831532897937826,-1.3731339400149412,-0.6604020763245891,-1.3133126900421235,-1.387948999399062,0.2370341952717841,0.38114104682073,-1.2144863751931712,-0.028520318885496287,-0.5976234576130606,1.7963474847994974,0.2565651469121439,-1.2264086291651637,-0.1378572324415769,1.0562501656873233,0.22111440321912618,0.460450623353804,-0.35535115824666075,1.010708693541101,-0.7219936920921973,0.6815629454689796,-0.9314920064064985,0.4471525433794619,-0.6586269768315369,1.4077244800003974,-0.3892901695294493,-0.08704634506098492,-1.057349003227893,2.0607121246765643,-1.4085862176943655,-0.5939609587811671,-1.5356124848577042,1.6526050907106526,-1.520771670021821,-0.5136804811980001,-1.1559321157967797,1.2824961259756538,-1.144587039479077,-1.7465392594190738,-0.5884510258961276,1.845666963585793,-0.9619554786829001,-0.4946462463841621,-0.9975632402776606,0.5344946912106467,-1.05199126666308,0.23315456153960096,-0.708296285647657,5
0.24274642995126966,0.47818206793974666,0.96730486810838,0.18393754925709194,-1.561406061485329,-1.0515727684121627,-1.744582084894611,-0.634682399940561,-1.4739062783638892,-1.0467710958773027,-1.4598984768646304,-1.5605317741030167,0.16869657996690138,1.4422638436150046,-1.6727337730358816,0.17289309401598651,-0.591730039256529,2.3543485835034508,-0.6573275290709208,-1.688481675651412,-0.9475765551033642,0.7178170187597201,-0.8641240001563377,0.07845665598481352,-0.6382179199506512,1.2276858225592295,-0.7132573999495456,0.04268008336649745,-1.2669588341384452,0.35516937750469085,-0.24926794735855626,0.7471259940210642,-0.8549057556794365,-0.736036360764076,-0.5698157641147079,1.5958689455488033,-0.8928814313927047,-0.8572094983848046,-1.3090603923648354,1.2132986641993244,-1.204844824668018,-1.576197983363118,-0.7746418673642506,1.3515247087345865,-0.8694880400519305,-1.586194046881548,-0.8488854949293186,2.312323045291048,-1.0756280141840446,-0.556618841044052,-0.971108617144133,1.241217301131933,-1.0023411646341893,1.2178735696182714,-1.0524506713509911,5
1.5693233968003024,-2.362225757143564,0.4162505855881605,0.11006592872077164,-1.5949633343172234,-1.083520016332989,-1.7261670830211102,-0.7696334159153405,-1.523658991247013,-1.1391900930596761,-1.5503411852366449,-1.6681775977238662,0.252581314208348,0.38840527038934414,1.0767506140203809,0.025218354739238332,-0.37525838179822385,2.131116882555893,-0.5615627027002911,-1.4406058726448645,-0.14415937248094968,0.11084607805045127,-0.5908314619447681,0.6466733235276974,-0.3514241723162689,1.4593309709944242,-0.9544499973153031,0.7278789518233102,-0.9830589513153524,0.051994982575512404,-0.5842596827228079,1.2398669805842344,-0.7738646713252013,-0.30785528377125315,-0.7114522482185766,1.339581697048724,-0.26598796184968604,-1.208183391481959,-0.6533534946862911,1.426425803882724,-1.3414194867500115,-1.2328548439986164,-0.059044962038887844,1.300942990789823,-0.7948009547502779,-1.030913336377282,-1.009583255742459,1.4945941073042406,-0.6301475353424649,-0.14169589859676246,-0.7611788115210538,1.8517999685632163,-0.9804730905457778,1.106869794912141,-0.9570147597092803,5
0.28556014287660364,0.26704632665981154,1.20977947675541,-0.03540689748732724,-1.634535389541693,-1.0649089117871882,-1.8240991898734438,-0.8610175199382466,-1.5679217496051028,-1.11976876581611,-1.5748924992857352,-1.6975519963243741,0.2416093400969381,1.7444047016990467,-1.805773340151507,0.22730033307190642,-0.7049307307196537,2.370606493566157,-0.7695727615673121,-1.5179305487371648,-1.0473887105944732,0.2999490675637231,-0.44532912581890166,0.14368036235722229,-0.5174522258784778,1.1272082693912606,-0.6573933784435921,0.2821566268156982,-0.8052591597347447,0.04129018660797286,-0.4572818786261232,1.1409682066535198,-1.0111202510425799,-0.6505350046437317,-0.5210114866679835,2.1920152018528856,-0.8502676320437166,-0.4487054034586298,-1.4508623606840247,1.7613824281862833,-1.3258904748454432,-0.8188478173510285,-0.9624384223170938,0.8875228477912253,-1.0115866158728228,-0.5330637073666395,-0.8859301625863051,1.9531956461071123,-0.923213507425493,-0.8804222951331002,-0.7733821927224822,1.4848794561103817,-1.2067840025723355,0.5577032880744356,-0.8503816564800464,5
-0.23880970751873143,-0.21894136514417004,0.9369421528335897,-0.18793121433400606,-1.5090276098766309,-1.0085078264119074,-1.8183443085915663,-0.6749349349808731,-1.5053679408342786,-1.010723397855404,-1.3683726222845678,-1.4525003946325343,0.2196422444477616,1.5716727049186372,-0.6416771278897831,0.1376013531013979,-0.8637735227017912,2.463289436105854,-0.8308631789376767,-2.0629594606316877,-0.3845923840595539,0.6228941203343592,-0.880637891255972,-0.31732022750012345,-0.9348862067288204,1.459130748104165,0.32000671496912714,-0.20096187692117387,-0.9111385055400982,0.19354291883262875,-0.042083666406935456,0.649741448074553,-0.29199464347968596,-0.5496605889469565,0.459737215072256,1.649241590285451,-0.7160298143889193,-1.2936693292175765,-0.5393747599863961,1.278466744872362,-0.8862153442691286,-2.219325768609106,-1.006096868285896,1.179821010384576,-0.971031828232699,-0.6473395386452148,-0.9325631310073703,2.792209553099724,-0.6540845302574545,-0.8389332286212619,-0.8008195759422145,1.2661627231446477,-1.0266694496864994,0.9723327181619269,-0.8601166792405913,5
1.4926340104118678,-1.79486684539132,0.775106945592302,0.1260473545943571,-1.7427354372395285,-0.9361753903200087,-1.743468665444646,-0.6278664874131356,-1.6387896721998971,-0.9315782050094282,-1.739891771645059,-1.8966621125554728,0.25820026590802214,0.9313234432323376,-1.5305190633605577,-0.05555316726608185,-0.20667017663477452,2.226138104840442,-1.0705859703825773,-0.747044663934884,0.04538455797359082,0.5187590824378575,-0.7250187744147969,0.12628508206703307,-0.3784348016572156,1.4450948333189073,-1.22306464373579,0.6788798334659302,-0.7780181527604404,0.42233219404015976,-0.5001883266656217,0.879442653320718,-0.3639903876631657,-0.4387503071840462,-0.8954164432981968,1.9858570117684273,-1.4716032891790713,-0.8207791751995981,-1.1523618617239344,1.456257328252437,-1.5047570058946915,-1.096428845048226,-1.0947721453873127,1.318930625392942,-1.0773590486735112,-0.9789676176969887,-0.8955677184167835,2.370071351753795,-0.7650340893549827,-0.5451286738670892,-0.47222071311219355,1.1796113038655978,-1.1089257804557027,0.9534553612580122,-0.994309578577133,5
0.3375149163419144,-1.2770908868240807,0.47707672692731823,-0.21034486269240696,-1.5265070538616696,-1.0288062113490961,-1.7637598772165621,-0.7764514047688715,-1.5534578309526084,-1.056949865517342,-1.3837171935652488,-1.47054874138554,0.18517486530813282,0.6248542686423083,0.7149763525656101,0.11498430527766888,-0.8492882925283716,2.486020709543834,-0.9733551186381314,-1.8627312621235916,-0.6784899887129302,0.267734637971264,-1.071437370907029,-0.14078379886935674,-0.8067752071262794,2.176158097141885,-0.8195698938655591,-0.21231536424103187,-0.7598362089771521,0.013895202627454056,-0.23031548922162234,0.8893877728979688,-0.18834784197855745,-0.46274279888264397,-0.6893293499024213,1.5775841409599083,-0.8452641192740302,-1.3787634783094092,-1.2758563739771622,1.723239162182507,-1.3561626815803791,-1.5418370272733093,-1.0033157084844873,1.1549143203252867,-0.8965483938402713,-0.9597649677906149,-1.09358127569278,1.9743590849852852,-0.6432437036099657,-1.0844882627496104,-0.9365802914279693,1.7244651018053543,-0.7915577959330279,0.7650881422476878,-0.5806519889306689,5
-0.6267063064633873,0.06898230598525237,1.1043881305500582,0.07337622962913347,-1.6006852090746138,-0.9965938168891626,-1.7098316760528809,-0.8101566085967544,-1.5190136451104455,-1.0246728188250434,-1.5562984893809093,-1.6752991992601853,0.22960371957706027,1.7759615057285127,-1.2144863751931712,0.1368971359149851,-0.7212776469538986,2.35066440512995,-0.880300852917414,-1.523724514619304,-0.8584286919684402,0.956944864305615,-0.7690474528787727,-0.01731517093512325,-0.7968398796652533,1.8011544877516419,-1.1131029889868038,-0.19859207999268497,-1.033197328004284,0.45461593941510653,-0.054924919200238384,0.7804313343479167,-0.6606228368698509,-0.7348808982672695,-0.5647590778837283,1.511079341802971,-1.3498459728547156,-0.8363869798157864,-1.009427940226718,1.820322868040704,-1.4052760760108773,-1.9765953892955026,-0.5365070957827003,0.9959133267082286,-0.0684210531960477,-1.7778222278685465,-1.074321640967825,1.6452023364828003,-0.8763720994357465,-1.4084816590954046,-0.7535372304126364,1.7849453687403147,-1.0367322593564918,1.3983448291111258,-0.7759922089247955,5
0.35563856413456457,-0.9078123715201829,1.186634141240879,0.6877911953461893,-1.205708252872498,-0.9934409010533309,-1.5916515456089313,-0.9354447315368456,-1.2074587258147458,-1.1197798114916346,-0.9089381057041735,-0.9239464018428615,0.22550759879624432,1.5447030658150458,-1.038237376022898,0.5037848639856277,-0.9465641384947784,1.9242219757440664,-0.7062656514904415,-2.326617903518916,-1.167394935761736,1.0899234111700755,-0.20030818418815496,0.2746126190485447,-0.995661335480459,0.9943171774092533,-0.9655363271844618,-0.15661729004747532,-1.3309234862015713,0.6088375206183888,-1.1449932406482324,0.9687762074922117,-1.0233913766898737,-0.6744019068371978,-0.5364008680041424,1.7463584239258383,-1.2221045329418532,-0.5837400837357427,-1.355495159188044,1.4495072320101687,-1.2647031881691535,-1.8876654037934246,-1.0409800596527714,1.2369269163116843,-1.1817978544228958,-1.418257354283668,-1.0372476010235359,2.2432842858839,-1.2037456359399687,-1.0604759775645787,-0.8804848428579432,1.0114045507298297,-1.0907277670847602,0.599204112118917,-0.9436975351253744,5
-0.7175487449621318,-0.9688795585340227,0.8439255314844782,-0.2543811037953378,-1.4142584582034,-1.0754867033766047,-1.723594872515086,-0.8738955883700082,-1.415153207341166,-1.1183414484800398,-1.2434497596230225,-1.3065163162873161,0.20209444037404925,1.3423493128284547,0.7149763525656101,0.2861822854998243,-1.0030265799259606,2.4010591543248605,-0.7755616119566484,-2.2577364919072545,-0.8396778539704746,0.673114813639113,-0.9477075708080582,-0.21720039045531062,-0.8587831749322209,1.5006112241298275,-0.7997507834492226,-0.6061034751045271,-1.09270241222123,0.43601505638870297,-0.6385393546269674,0.9978419168266882,-0.7405947789057427,-0.21138698406843476,-0.9152972613232356,1.539815853875367,-1.3479674406700222,-0.29509427598210536,-1.2467913847966283,1.6873087940844111,-0.567933983712561,-3.178592485575728,-0.8073024028077487,1.5712259941802875,-0.8394964190582844,-0.6138683467185958,-0.6689718753963375,1.7958886846821411,-0.9356158910634113,-2.162626005991004,-1.2508410774379668,1.3439028971061464,-1.1060946509067433,0.15146463018006906,-0.6535635730863119,5
1.312244670795374,0.004732439171842677,0.31863642596441133,0.12414211628213878,-1.6196815599694023,-0.9316950101405567,-1.7291332684570928,-0.5041100818935387,-1.5191192211590039,-0.9187200846435324,-1.6245367004879385,-1.7571486015902542,0.20589799819684715,0.26083568779008787,-1.6727337730358816,-0.11290536293025068,-0.5495734644310472,2.0480490320282416,-0.5365822057738314,-1.0001525457146363,-0.41085298583115554,0.2683134459088948,-0.38525722182564903,0.5395141629630763,-0.1667133372831,0.8745187601715171,-0.9271449457034224,0.7813315473270375,-0.5589481839582832,0.019664294736491898,-0.16364502054903224,1.3146463677396587,-0.7924081307813763,-0.2504260657102362,-1.2709055398188294,1.9303300904506508,-1.2230217251548112,-0.625013156984012,-1.313095644572604,1.670929607818169,-1.3657254708987299,-0.589020803812257,-0.45375044148240873,1.6864792631822836,-0.8693102817403406,-0.34578545091231,-0.981570284005168,1.6152959635996569,-1.0104040498835911,-0.3517899484463815,-0.5878129855235038,0.8327823786154415,-0.8354199455228826,0.46484792376407763,-0.9730200173737542,5
0.436572405572799,-0.31678372367985497,0.7342546572004058,0.3074478614889651,-1.361255881646883,-1.028877906595362,-1.5640340819420158,-0.6310919851892436,-1.3078087599694603,-1.0058373347903435,-1.4604400499686545,-1.5611737182804177,0.2430860939182318,1.217714198356817,1.4810865532933601,0.18648386237816097,-0.3426784798362681,2.0800759656763885,-0.5272755907861114,-2.021386149658511,-0.2540519617083955,0.7015817653259221,-0.5688292752781,0.20923166206764018,-0.5201694333407172,1.685433072844542,-0.4611105755919763,0.2205928721138811,-0.6767697532937795,0.40276210864386114,0.4184386830657908,0.9722533460044532,-0.6076257468521453,-0.21042492220037518,-0.3164061204187015,1.2962670064145605,-0.6347031356824674,-0.7220313650332125,-1.3247291398002399,1.2331965003844856,-0.9541478198928819,-2.155251960685079,-0.49511275438305047,1.5911442171181411,-0.894249356323306,-1.0018589804829512,-1.052928674422018,2.2254111782179264,-0.9556710555115013,-1.1257490537076291,-0.9372534976229739,1.5942582730963066,-1.0992198720986615,0.2535489316123919,-0.906883468018592,5
1.7065882843958513,-3.1342929189642934,0.6678449645183856,-0.0486376728056554,-1.508957191543343,-1.0265756006219189,-1.750799391152039,-0.9367711510135677,-1.4690233861180655,-1.133780117824939,-1.3721636340127359,-1.4569570215753576,0.17487871672510705,0.5994145372162358,1.4810865532933601,0.2296797266547979,-0.5690103607546705,2.240331394720272,-0.8403836392440927,-1.9217404949656858,-0.1520406391146767,0.4076698744604661,-0.6819554694640065,0.6268308546576191,-0.8250235264595631,1.3807450986683323,-0.6551794011067914,0.6640729937529487,-0.6250631424329963,0.45052200964538325,-0.29237366776593515,1.0454921239438777,-0.8139610350316883,-0.5930937112464165,-1.0280385588769618,1.176334021539535,-1.2639761794343942,-0.7972752221186604,-0.7664086491911115,1.842201519979755,-1.38688150874474,-1.268828126119356,-0.5490006485514757,1.3508551306200645,-0.9203175733161805,-0.7109845487962455,-0.07147674015572823,1.5104159353137991,-0.9560718201742758,-1.468572997167975,-1.163087126840727,1.7453235987504268,-1.0536103899550673,0.2996823923194274,-0.8542574143151254,5
1.9643417998822,-0.9322103479013886,0.6509847534822174,0.6709000010318236,-1.4043057133333436,-0.9907863419278112,-1.5972623600113982,-0.6486888062881604,-1.310712101304815,-1.0336830506717796,-1.4252377982070918,-1.51951354570109,0.1986404741238487,0.7487037245992291,-1.038237376022898,0.18565239351104273,-0.6518293492027598,1.8794236132854287,-0.4613450010422098,-1.6268463728667466,-0.843480836485411,0.47734396584631217,0.11234815533269867,0.8802312392242373,-0.2243443002295945,0.9506784211462419,-0.04330629712454466,0.532479245231214,-0.4533141689823487,0.11187378709338931,-0.5404815343625631,1.2439173348786143,-0.9574767478202002,-0.13505025249267774,-0.6225882222380044,2.0159906523323934,-1.2767869880892906,-0.5394317984670758,-1.49465408996013,1.5633119853188908,-1.2808720796912854,-1.1783390988930644,-0.6104285390175239,1.0345514480954328,-0.9114427166120163,-0.8065310453726051,-0.7264488098636656,1.9226360094662964,-0.8872229594517484,-0.41427711758606806,-0.9754970248890528,1.295064936433807,-1.1959966591047522,0.6646589175687686,-0.7366883581911765,5
-0.026491286823039664,-0.8901159397411584,0.8400774266530001,-0.2887012897338804,-1.219333683946753,-1.0789220288611778,-1.6076741869565998,-0.9448922752197941,-1.318656698958831,-1.1275937238504075,-1.0759231461115861,-1.113403902878354,0.2328569836622729,1.3973394932369472,-0.17301501645973807,0.37772702297284677,-0.9554618471234186,1.9191354138501215,-1.0756331577411462,-2.461714534575791,-0.6877340355317978,0.5583024069968271,-0.8152508493291066,0.07545452273143172,-1.1279735885020838,1.5299176003135504,-0.6447479559236869,-0.5003027752233999,-1.2067233806878612,0.05748232874969219,-0.30738142611628605,0.7901291442773142,-0.6834355221907967,0.06341769200575162,-0.7018115108555374,0.6918347736611423,-0.10566772839609284,-0.5768862955290336,-0.9562832357587502,1.7492154324731088,-0.6543370177041327,-3.0024086866200164,-0.4207399198801997,2.2398627822489274,-0.8940117073076213,0.10467861027350565,-1.087929991130601,2.479640356297071,-1.0293586792228815,-2.0619234185146884,-0.9618002500719853,1.3132708380039742,-1.1925416325836058,-0.357649403102182,-0.8440189839185039,5
2.1582846221671788,-2.038354372708952,0.5773286472987985,0.3860276763283755,-1.5843833709454982,-0.9102430185994173,-1.5832631395154577,-0.5428589985626061,-1.4535564950042668,-0.8693119477748065,-1.711368921499793,-1.8620314393918935,0.15686192587664746,0.68831210193164,-1.9304979343224062,-0.10083348096722498,-0.1807715290803258,1.813351871923607,-0.18405684269270126,-0.9863335191459024,-0.22985649442631734,0.5999532154632525,-0.6717867283207631,0.4693158226431924,-0.729883443123703,1.320722080726019,-0.6844253059630679,0.7546689923663337,-0.871403803762911,0.05218977101381446,-0.023056969544712813,1.075833607759658,-0.7272128660834215,-0.16148827013501854,-0.8798294636943786,1.8206328048088902,-1.1947608026607206,-0.7926640154144454,-1.2991131856286628,1.662102677823169,-1.3037584694639806,-0.7845563687363214,-1.144563162314109,1.4820504792057727,-0.8953514803704654,-0.32212181952911395,-0.4678252553130127,2.6807203935114243,-1.2066426000748494,0.24623354813200943,-0.7594808426774429,1.7288620869845777,-1.213465363563429,0.598750329202158,-1.0445782399680446,5
1.008860342357091,-0.9761744841157849,0.6513068465479821,0.15499559281585332,-1.4003283500852648,-0.9740555255918311,-1.699132013126856,-1.002894765598479,-1.4238896253593696,-1.106572909962223,-1.1999433869330913,-1.2560726107702747,0.24887840681383186,0.6223097519020311,0.3893795172563153,0.2776812042831883,-0.32399334890131976,2.049875052237154,-1.0676018656395914,-2.023134281991789,-0.09003339576955034,0.6906020513179011,-1.3417461587296553,0.35160302440517033,-0.9103871505550126,1.4243701520765353,-1.0753052900992757,0.2877755184637746,-0.733385857756935,0.25595825711796927,-0.6081520861139176,0.8417579070137153,-1.2433730370252494,-0.35705032400287207,-1.0911172062883658,0.7888830117411708,-1.1761196367608129,-0.735416017737854,-1.3071130819053949,2.0117395419013815,-1.4497598277094963,-2.206102316391781,-0.6875364300152529,1.7160661451301724,-0.9415271006511025,-0.5872129353969247,-1.0385702012296691,2.253826788525977,-0.771916638108434,-1.3474869483833585,-0.6245808190648368,1.1209855228438093,-1.1901876550848918,0.6540868852767627,-1.1534764666110655,5
0.3352415184461768,-1.311801747567936,0.3733672962731253,-0.23010766388188858,-1.5037339199530202,-0.9925502510074188,-1.6569031288794962,-0.6287024282908346,-1.4391981524003308,-0.9936195334484297,-1.4328198216634285,-1.5284751439173319,0.20239046418002862,0.3945320957744627,0.7149763525656101,0.05574735562818931,-0.6403612979649294,2.3390114745647583,-0.653804119916794,-1.7976109570510026,-0.7153307067415096,0.9182765086116037,-1.0126929868734909,-0.023093503514827918,-0.8612143286422638,1.8900943983810068,-0.34848322970111817,0.00859932161346549,-0.8910314470767045,-0.016814557369579788,0.9528175865446957,0.6874849410430948,-0.559477915355064,-0.420035698668578,-0.9268289548594779,1.091193404387069,-1.3745549028248947,-0.9454790180659193,-1.491186218314309,2.0270565000644916,-1.2774358426698957,-1.472036298183766,-0.9345813305353833,1.7093724204588676,-0.9405488107665452,-1.1899256833002814,-0.9830141013815921,1.74456008400366,-0.6003876522076872,-0.8341686307184579,-0.9584407663920261,2.1395154286289864,-1.1565882538375418,0.5847193328194705,-0.9285786832968009,5
1.6148928652539263,-2.6635265088954516,0.874471975902416,0.1249599015120039,-1.5387452635092902,-0.8386098884310192,-1.672806709560348,-0.7626544537938683,-1.4855724317295873,-0.9121607352556221,-1.4775898649294157,-1.581518411895971,0.2912032924631347,0.9408419983144867,-1.2144863751931712,0.14515678861434483,-0.3033900505270173,2.061858614194839,-0.8603937093431824,-1.5023291627625919,1.2773075164047651,0.9800435842416317,-0.5501266743196044,0.3607909146535154,-0.8370436961325437,1.2001288979093963,-0.7945053516451699,0.5086854638006064,-0.6634096849594995,0.23782297041484454,-0.4695108014822701,1.2520818365115103,-1.1438549703874574,-0.16369084752159702,-1.2589461151561179,1.5923880509412072,-1.0255561581052262,-0.27216036116976405,-1.437980499522585,2.18277326448613,-1.471895920491125,-0.4832233974610562,-0.9059508447040959,1.9922905464841076,-1.4140873556943392,-1.0817270150842497,-0.8782636002041637,1.902687871864435,-0.7937164115145452,-0.6404587496916645,-0.7213643773240451,1.6117699372474468,-1.0824226103776429,0.6932856600988254,-1.1646895215300639,5
1.5848895632467037,-2.9531012433349417,0.3016537288328115,-0.19486072305595067,-1.5052349175116226,-0.9953558469484591,-1.6611531416473058,-0.881400326274481,-1.420405615756944,-1.0468741386780334,-1.4714520364171433,-1.5742334860175675,0.1990532190122964,0.19996985609631834,0.3893795172563153,0.11008503955397453,-0.7447431083931239,2.2553300812469126,-0.7870221086853582,-1.7460804715445206,-0.9938646834471258,0.761012765706288,-1.1812130042999622,0.04089078653263034,-0.7792652343514508,1.5887976389547878,-0.7267476120091425,0.43825817530845823,-0.9855972622956423,0.16714028942758702,0.0025557628038397236,0.929633738825864,-0.9472020630749952,-0.4385987346791683,-1.0683859215121316,1.059594957876188,-0.7279407996203082,-0.8748606423955858,-1.552206859948712,1.8989492396239038,-1.367326177400426,-1.601797667320967,-1.1967735499938303,1.7034531051081683,-1.2339051310921776,-1.0492484153471606,-0.824609299473759,1.5370748113739903,-0.4780762153932877,-1.1992718864381293,-0.3341906385746223,1.6585787253337536,-1.0794952597007206,0.5050363394790256,-0.9122989815598599,5
1.6643168130180872,-1.8646748424842445,0.27808105294088564,0.4959163967701782,-1.556964770481935,-0.9464473757034378,-1.436868669086912,-0.7402401275403109,-1.3514908500604788,-0.9011950692635765,-1.751986904301596,-1.911373926054622,0.296885995089564,0.05138606663089357,-2.70379041818198,-0.1265144512775207,-0.4403558978467483,1.5861482118176242,-1.0643093635609822,-0.5507831103758936,-1.1635501844491525,0.8066158222786964,-0.02793251907820387,0.5334937731305314,-0.4873288860337017,1.1280700983536798,-1.23708934292234,0.8273380058261608,-1.0938456329625847,0.14267642936399816,-0.07907352992147985,1.2482244165749932,-1.0625862403665238,-0.03125835143942838,-1.4459529181746076,2.0321988257928028,-1.206154278053113,-0.7881493261800694,-1.4415182188218718,1.212372036394074,-1.5352776805045176,-0.8361163572278377,-1.5381868487266874,1.3606942321468565,-1.2037271396838152,-0.6851469967734847,-0.6879233270452874,2.1299900001979553,-1.2897630153830972,-0.024706896053883865,-0.8161503447621412,1.4671522995465842,-1.2137705087947437,0.34501808065192985,-1.0262511137279897,5
1.2046752672780232,-0.901905533587083,0.2270585625844165,1.5420624151431699,-1.636210085451594,-0.8187847314935093,-1.8736936275710678,-0.23410034950481207,-1.5575489028342444,-0.8292426358201428,-1.5080984831227702,-1.617789438148805,0.20015276904358156,0.4356383120479295,-0.8478884569190028,-0.3938784422254612,4.121479384816786,1.619670534282189,-0.41937898659048195,-0.8046314055633632,4.096298461609057,0.27236212382957614,1.7013880362514926,0.7506930878848707,-0.316193780068407,1.0664517456915572,-0.32260444324769816,0.825396568132675,-0.5782832872585316,0.35568866142280353,-0.7449296810416686,1.0547397105042213,-1.0108227463703539,-0.39983071730292735,-0.9208587014667633,1.3687918463822435,-1.2197800182960454,-0.024799468236392494,-1.1462204161196958,1.8930091889467462,-1.2346439292259737,-1.2978243991787775,-0.6829662181048923,1.5312540658444056,-1.0148457058794893,-0.15867177148759526,-1.0301056728807525,1.7577909295380651,-1.0488368679736828,-1.2786384994509021,-0.7852022797349142,1.370021111011621,-1.2319932706094847,0.41358737117506583,-1.1940934299213894,5
-0.9565315742569792,-0.3290963790061568,-0.42572280386587547,1.4039363232457593,-1.6540646929112885,-0.9927556354265068,-2.2219683890501534,-1.2803392065810308,-1.7086546223333872,-1.1644535339235818,-1.3362392847791413,-1.414787806640337,0.22806097243728005,-0.28740294724734955,0.09479190435743004,-0.7265032371752231,0.9313226204166084,1.7878913069467073,-0.43940747365722016,-1.3655982549814214,2.3458365785587194,-1.0701035218736907,0.5704017277117883,1.645682220010687,-0.4237187629806841,-0.8753366049096195,-0.3560833256193654,0.7016332504818139,-0.9762322548213501,-0.8774843381032192,-0.6874868626481073,-0.29794208078382733,-0.6045726281015789,-1.4102190424488394,-0.7156798740693083,1.1864729437604289,-0.39036180872087545,-0.4773530565806944,-1.2955924895012005,1.0183526330986006,-0.8546647599554599,-1.2977615998172893,0.03947846896859751,-0.17443534354739335,0.043207564034019805,-1.1637521024816109,-0.9912352916272408,0.5118615969061006,-0.7731000055152438,-1.797045816318181,-0.4386626077476206,-0.0020616326677307287,-1.1601619393910907,0.25182631894335117,-0.9826478782674174,5
1.0903670975920507,1.5768529602155117,-0.7384137008496184,0.894059219087182,-2.3647529650647305,-0.9670155350408286,-2.852227447477369,-0.2419017331572106,-2.264591700029535,-1.04590240569113,-1.9956948011124143,-2.211188341785718,0.22980866229392963,-0.4164955626124167,-0.17301501645973807,-1.6641433354270874,2.2616936320541443,1.2286163765450173,5.8204685405501495,1.733043558631825,4.672101716089703,-0.8620913557513531,0.4999754439288401,1.3674263564763864,0.007396379043866793,-0.3491947790493815,-1.1368137832822465,1.2251212168213121,-1.531940780689993,-0.4854418142705312,-1.3404831547781788,1.6399290870211183,-0.780157875874323,0.06702227000522545,-1.5906246821385082,1.9035967611055915,-1.5857192891738912,0.02848087465570393,-1.610992025678974,1.814996111071126,-1.6140213871368134,0.5176390118089812,-1.5770048631044842,0.8056061157747592,-1.117465781798038,-0.15654238039243584,-1.4087730030871706,1.5241217864376515,-1.5717913984810026,0.7519894914240577,-1.4392632407182728,1.5738342540748977,-1.242311625932557,1.4232006570502893,-0.7317703879161045,5
2.01871712501003,4.828084638700676,-1.9886977407469086,-0.8392975689929864,-0.40841104111203297,3.59618901819448,-1.4519069149936534,7.247420351864005,-0.7054182209076373,3.198770874884688,0.8746426502149984,0.9109101699457873,0.2169709832077638,-1.074610645034094,0.3893795172563153,-8.330445661696187,3.6456496360150745,-1.566494669478866,3.701539841225559,-0.23737460566669488,-0.3106281971862216,-0.5976569827067889,2.7370075811158876,-0.20531996091232,-1.4447750872233993,-0.4366213302727025,-0.8684844121892961,0.6646020361242992,-1.705104493077401,-0.24835466097183134,-1.1501853929002248,0.9869640363824265,-1.832596065369155,-0.028454710671437632,-0.7585752253079153,1.0304481315570877,-1.7070280702755707,-0.09489439936011362,-1.4031214310412299,1.2784266987182555,-1.5945067283026038,-0.5388151049601029,-1.4562237863788938,1.8365791399559406,-1.0130819696745,-0.7983678163783549,-1.2943911876903154,1.905054616049736,-1.1814561657410791,-0.10607845211663305,-1.6461992263164351,1.630902526054008,-1.3333300354034041,0.9506349383317241,-1.135635787743116,5
-4.640774424794212,-11.163831378053539,-1.9898011739799326,-0.8393063802925692,-3.0748177978768227,-1.1725243510718288,-4.260501868287788,-1.4225444477258233,-2.9021126692491497,-1.2949120848709434,-2.4756779607520425,-2.8205195529104232,0.21729303219866905,-1.0746131934895635,-0.17301501645973807,-9.830519488598236,-1.3535143623057706,-3.1777559112125138,-1.6105746934931562,0.41148648621508116,-1.633259362689898,-2.179117167181237,-1.8976124448904412,0.09375643697634306,-1.7319686961640117,-1.2372556000584198,-1.8581298291963526,0.5161753572379617,-1.9938761740809152,-0.9668095293723399,-2.150168370325756,0.8455869719861311,-2.2418392990103047,-0.9733167340435148,-2.226213854389355,0.8829232230152861,-1.981697606109085,-0.6663822504182569,-2.105212435519615,0.7775102691334929,-2.0481970071430675,-0.35442812751620073,-1.8815798190089592,0.7958644771875732,-1.8550814383664431,-0.25046166715964985,-1.7980339005905972,0.8723934083112858,-1.871067142053224,-0.1300859687318784,-1.8525021495160228,0.6207040726505082,-1.7823943990238014,0.285486223959427,-1.55075098972773,5
